Node location (m),Nodal displacement (m),Nodal rotation (rad),Force reactions (N),Moment reactions (Nm)
0,0,0,4983.33,6222.22
0.05,-0.000319748,-0.0127034,0,0
0.1,-0.00126169,-0.0248879,0,0
0.15,-0.0027999,-0.0365538,0,0
0.2,-0.00490844,-0.0477019,0,0
0.25,-0.00756146,-0.0583329,0,0
0.3,-0.0107331,-0.0684481,0,0
0.35,-0.0143977,-0.0780489,0,0
0.4,-0.0185295,-0.087137,0,0
0.45,-0.0231029,-0.0957144,0,0
0.5,-0.0280924,-0.103783,0,0
0.55,-0.0334728,-0.111346,0,0
0.6,-0.0392187,-0.118406,0,0
0.65,-0.045305,-0.124965,0,0
0.7,-0.0517069,-0.131027,0,0
0.75,-0.0583995,-0.136595,0,0
0.8,-0.0653582,-0.141674,0,0
0.85,-0.0725588,-0.146267,0,0
0.9,-0.0799769,-0.150379,0,0
0.95,-0.0875887,-0.154013,0,0
1,-0.0953704,-0.157176,0,0
1.05,-0.103298,-0.159872,0,0
1.1,-0.11135,-0.162105,0,0
1.15,-0.119501,-0.163883,0,0
1.2,-0.127731,-0.165211,0,0
1.25,-0.136015,-0.166095,0,0
1.3,-0.144333,-0.166541,0,0
1.35,-0.152662,-0.166556,0,0
1.4,-0.160981,-0.166146,0,0
1.45,-0.16927,-0.16532,0,0
1.5,-0.177507,-0.164084,0,0
1.55,-0.185671,-0.162446,0,0
1.6,-0.193745,-0.160415,0,0
1.65,-0.201706,-0.157997,0,0
1.7,-0.209538,-0.155203,0,0
1.75,-0.217221,-0.152039,0,0
1.8,-0.224736,-0.148517,0,0
1.85,-0.232066,-0.144644,0,0
1.9,-0.239195,-0.14043,0,0
1.95,-0.246104,-0.135885,0,0
2,-0.252778,-0.131019,0,0
2.05,-0.259201,-0.125842,0,0
2.1,-0.265357,-0.120365,0,0
2.15,-0.271232,-0.114598,0,0
2.2,-0.276812,-0.108554,0,0
2.25,-0.282083,-0.102242,0,0
2.3,-0.287032,-0.0956749,0,0
2.35,-0.291647,-0.0888643,0,0
2.4,-0.295915,-0.0818222,0,0
2.45,-0.299825,-0.0745611,0,0
2.5,-0.303367,-0.0670935,0,0
2.55,-0.306531,-0.0594323,0,0
2.6,-0.309308,-0.0515907,0,0
2.65,-0.311688,-0.0435822,0,0
2.7,-0.313663,-0.0354203,0,0
2.75,-0.315227,-0.0271191,0,0
2.8,-0.316373,-0.0186926,0,0
2.85,-0.317095,-0.0101554,0,0
2.9,-0.317387,-0.00152216,0,0
2.95,-0.317246,0.00719212,0,0
3,-0.316667,0.0159722,0,0
3.05,-0.315647,0.0248027,0,0
3.1,-0.314186,0.0336677,0,0
3.15,-0.31228,0.0425512,0,0
3.2,-0.309931,0.051437,0,0
3.25,-0.307137,0.0603086,0,0
3.3,-0.3039,0.0691491,0,0
3.35,-0.300223,0.0779415,0,0
3.4,-0.296107,0.0866685,0,0
3.45,-0.291557,0.0953125,0,0
3.5,-0.286578,0.103856,0,0
3.55,-0.281174,0.11228,0,0
3.6,-0.275352,0.120567,0,0
3.65,-0.26912,0.128698,0,0
3.7,-0.262485,0.136654,0,0
3.75,-0.255458,0.144416,0,0
3.8,-0.248047,0.151965,0,0
3.85,-0.240265,0.159281,0,0
3.9,-0.232123,0.166344,0,0
3.95,-0.223635,0.173133,0,0
4,-0.214815,0.17963,0,0
4.05,-0.205677,0.185812,0,0
4.1,-0.196239,0.191658,0,0
4.15,-0.186518,0.197149,0,0
4.2,-0.176531,0.202261,0,0
4.25,-0.166298,0.206974,0,0
4.3,-0.15584,0.211265,0,0
4.35,-0.145179,0.215112,0,0
4.4,-0.134337,0.218493,0,0
4.45,-0.123338,0.221384,0,0
4.5,-0.112207,0.223763,0,0
4.55,-0.100971,0.225606,0,0
4.6,-0.0896557,0.226891,0,0
4.65,-0.0782912,0.227592,0,0
4.7,-0.0669066,0.227686,0,0
4.75,-0.0555331,0.227149,0,0
4.8,-0.0442027,0.225956,0,0
4.85,-0.0329489,0.224081,0,0
4.9,-0.0218063,0.221501,0,0
4.95,-0.0108109,0.218189,0,0
5,0,0.21412,9229.63,0
5.05,0.0104399,0.203504,0,0
5.1,0.0203533,0.193065,0,0
5.15,0.0297493,0.182805,0,0
5.2,0.0386368,0.172724,0,0
5.25,0.0470247,0.162821,0,0
5.3,0.0549219,0.153096,0,0
5.35,0.0623373,0.14355,0,0
5.4,0.0692798,0.134182,0,0
5.45,0.0757585,0.124993,0,0
5.5,0.0817821,0.115982,0,0
5.55,0.0873596,0.107149,0,0
5.6,0.0925,0.0984954,0,0
5.65,0.0972121,0.0900198,0,0
5.7,0.101505,0.0817226,0,0
5.75,0.105387,0.0736039,0,0
5.8,0.108868,0.0656636,0,0
5.85,0.111957,0.0579017,0,0
5.9,0.114661,0.0503183,0,0
5.95,0.116992,0.0429133,0,0
6,0.118956,0.0356867,0,0
6.05,0.120563,0.0286386,0,0
6.1,0.121823,0.0217689,0,0
6.15,0.122743,0.0150776,0,0
6.2,0.123333,0.00856481,0,0
6.25,0.123602,0.00223042,0,0
6.3,0.123559,-0.00392554,0,0
6.35,0.123213,-0.00990307,0,0
6.4,0.122572,-0.0157022,0,0
6.45,0.121646,-0.0213228,0,0
6.5,0.120443,-0.026765,0,0
6.55,0.118972,-0.0320288,0,0
6.6,0.117243,-0.0371142,0,0
6.65,0.115264,-0.0420211,0,0
6.7,0.113044,-0.0467496,0,0
6.75,0.110592,-0.0512997,0,0
6.8,0.107917,-0.0556713,0,0
6.85,0.105028,-0.0598645,0,0
6.9,0.101933,-0.0638792,0,0
6.95,0.0986426,-0.0677156,0,0
7,0.0951646,-0.0713735,0,0
7.05,0.0915082,-0.0748529,0,0
7.1,0.0876823,-0.0781539,0,0
7.15,0.0836958,-0.0812765,0,0
7.2,0.0795576,-0.0842207,0,0
7.25,0.0752767,-0.0869864,0,0
7.3,0.0708619,-0.0895737,0,0
7.35,0.0663223,-0.0919825,0,0
7.4,0.0616667,-0.094213,0,0
7.45,0.056904,-0.0962649,0,0
7.5,0.0520431,-0.0981385,0,0
7.55,0.0470931,-0.0998336,0,0
7.6,0.0420628,-0.10135,0,0
7.65,0.036961,-0.102689,0,0
7.7,0.0317969,-0.103848,0,0
7.75,0.0265792,-0.10483,0,0
7.8,0.0213169,-0.105633,0,0
7.85,0.0160189,-0.106257,0,0
7.9,0.0106941,-0.106703,0,0
7.95,0.00535152,-0.106971,0,0
8,0,-0.10706,-1712.96,0
